x (m)  rho (kg) u (m/s) p (kPa) M 
-1.00000000000000 1.73035568736393 57.21627389849596 297.15801095372512 0.11668889438290
-0.99331103678930 1.73035357757813 57.22139713278908 297.15750370805068 0.11669937134610
-0.98662207357860 1.73034724574483 57.23677011711016 297.15598137724163 0.11673080899222
-0.97993311036789 1.73033668443113 57.26240269964704 297.15344217870785 0.11678322759893
-0.97324414715719 1.73032188123163 57.29831130692693 297.14988313734909 0.11685666098931
-0.96655518394649 1.73030281874250 57.34451896315993 297.14530007936679 0.11695115657237
-0.95986622073579 1.73027947452510 57.40105531736368 297.13968762357706 0.11706677539983
-0.95317725752508 1.73025182105898 57.46795667831246 297.13303917019277 0.11720359223936
-0.94648829431438 1.73021982568417 57.54526605736855 297.12534688704875 0.11736169566428
-0.93979933110368 1.73018345053255 57.63303321926372 297.11660169322198 0.11754118815997
-0.93311036789298 1.73014265244814 57.73131474091340 297.10679324000102 0.11774218624706
-0.92642140468227 1.73009738289601 57.84017407835913 297.09590988914726 0.11796482062181
-0.91973244147157 1.73004758785952 57.95968164194607 297.08393868837965 0.11820923631365
-0.91304347826087 1.72999320772571 58.08991487985766 297.07086534401191 0.11847559286041
-0.90635451505017 1.72993417715825 58.23095837014222 297.05667419065702 0.11876406450126
-0.89966555183946 1.72987042495785 58.38290392137890 297.04134815790633 0.11907484038803
-0.89297658862876 1.72980187390943 58.54585068214571 297.02486873388386 0.11940812481489
-0.88628762541806 1.72972844061575 58.71990525946490 297.00721592556022 0.11976413746711
-0.87959866220736 1.72965003531693 58.90518184641657 296.98836821571069 0.12014311368909
-0.87290969899666 1.72956656169526 59.10180235912421 296.96830251637533 0.12054530477226
-0.86622073578595 1.72947791666480 59.30989658333210 296.94699411868658 0.12097097826323
-0.85953177257525 1.72938399014495 59.52960233080819 296.92441663890185 0.12142041829278
-0.85284280936455 1.72928466481738 59.76106560582227 296.90054196047612 0.12189392592630
-0.84615384615385 1.72917981586563 60.00444078196347 296.87534017199238 0.12239181953606
-0.83946488294314 1.72906931069628 60.25989078957873 296.84877950075327 0.12291443519621
-0.83277591973244 1.72895300864116 60.52758731412742 296.82082624182897 0.12346212710102
-0.82608695652174 1.72883076063931 60.80771100576601 296.79144468232971 0.12403526800705
-0.81939799331104 1.72870240889790 61.10045170049121 296.76059702066868 0.12463424970008
-0.81270903010033 1.72856778653088 61.40600865318824 296.72824328055236 0.12525948348759
-0.80602006688963 1.72842671717431 61.72459078294698 296.69434121942635 0.12591140071748
-0.79933110367893 1.72827901457691 62.05641693102659 296.65884623107667 0.12659045332412
-0.79264214046823 1.72812448216472 62.40171613186535 296.62171124207765 0.12729711440239
-0.78595317725753 1.72796291257829 62.76072789755397 296.58288660174355 0.12803187881098
-0.77926421404682 1.72779408718089 63.13370251620042 296.54231996523038 0.12879526380558
-0.77257525083612 1.72761777553610 63.52090136464263 296.49995616939975 0.12958780970337
-0.76588628762542 1.72743373485314 63.92259723597444 296.45573710104259 0.13041008057971
-0.75919732441472 1.72724170939787 64.33907468237236 296.40960155701896 0.13126266499816
-0.75250836120401 1.72704142986763 64.77063037372770 296.36148509586025 0.13214617677519
-0.74581939799331 1.72683261272784 65.21757347260552 296.31131988033246 0.13306125578067
-0.73913043478261 1.72661495950789 65.68022602607023 296.25903451043848 0.13400856877550
-0.73244147157191 1.72638815605415 66.15892337493233 296.20455384629895 0.13498881028777
-0.72575250836120 1.72615187173743 66.65401458099090 296.14779882031831 0.13600270352878
-0.71906354515050 1.72590575861212 67.16586287285719 296.08868623800123 0.13705100135043
-0.71237458193980 1.72564945052419 67.69484611096391 296.02712856674805 0.13813448724547
-0.70568561872910 1.72538256216500 68.24135727237541 295.96303371191533 0.13925397639215
-0.69899665551839 1.72510468806741 68.80580495602804 295.89630477937919 0.14041031674498
-0.69230769230769 1.72481540154102 69.38861390904005 295.82683982379928 0.14160439017307
-0.68561872909699 1.72451425354255 69.99022557473987 295.75453158172428 0.14283711364799
-0.67892976588629 1.72420077147754 70.61109866306796 295.67926718863521 0.14410944048279
-0.67224080267559 1.72387445792914 71.25170974401256 295.60092787895621 0.14542236162393
-0.66555183946488 1.72353478930961 71.91255386474054 295.51938866802362 0.14677690699815
-0.65886287625418 1.72318121442964 72.59414519108269 295.43451801492319 0.14817414691605
-0.65217391304348 1.72281315298062 73.29701767402699 295.34617746505540 0.14961519353426
-0.64548494983278 1.72242999392447 74.02172574186385 295.25422127122079 0.15110120237839
-0.63879598662207 1.72203109378544 74.76884501861038 295.15849599194291 0.15263337392846
-0.63210702341137 1.72161577483785 75.53897306932073 295.05884006568090 0.15421295526907
-0.62541806020067 1.72118332318343 76.33273017286196 294.95508335950444 0.15584124180616
-0.61872909698997 1.72073298671172 77.15076012269783 294.84704669073136 0.15751957905256
-0.61204013377926 1.72026397293629 77.99373105618133 294.73454131994509 0.15924936448413
-0.60535117056856 1.71977544669944 78.86233631280163 294.61736841372704 0.16103204946874
-0.59866220735786 1.71926652773744 79.75729532176734 294.49531847536218 0.16286914126989
-0.59197324414716 1.71873628809816 80.67935451923260 294.36817074168039 0.16476220512694
-0.58528428093646 1.71818374940218 81.62928829538130 294.23569254412075 0.16671286641389
-0.57859531772575 1.71760787993847 82.60789997148009 294.09763863201522 0.16872281287838
-0.57190635451505 1.71700759158477 83.61602280688949 293.95375045600014 0.17079379696262
-0.56521739130435 1.71638173654295 84.65452103588014 293.80375540938871 0.17292763820781
-0.55852842809365 1.71572910387851 85.72429093393951 293.64736602524607 0.17512622574341
-0.55183946488294 1.71504841585359 86.82626191306895 293.48427912683911 0.17739152086238
-0.54515050167224 1.71433832404190 87.96139764535921 293.31417492905894 0.17972555968347
-0.53846153846154 1.71359740521385 89.13069721389115 293.13671608834858 0.18213045590107
-0.53177257525084 1.71282415697969 90.33519628973681 292.95154669861955 0.18460840362304
-0.52508361204013 1.71201699317812 91.57596833352750 292.75829123059003 0.18716168029659
-0.51839464882943 1.71117423899738 92.85412581970920 292.55655341196342 0.18979264972163
-0.51170568561873 1.71029412581587 94.17082148121547 292.34591504584745 0.19250376515064
-0.50501672240803 1.70937478574871 95.52724957185244 292.12593476483698 0.19529757247373
-0.49832775919732 1.70841424588696 96.92464714320157 291.89614671822363 0.19817671348660
-0.49163879598662 1.70741042221607 98.36429533230242 291.65605918987808 0.20114392923853
-0.48494983277592 1.70636111320001 99.84752065577150 291.40515314445543 0.20420206345689
-0.47826086956522 1.70526399301830 101.37569630534058 291.14288069974810 0.20735406604332
-0.47157190635452 1.70411660444316 102.95024343905320 290.86866352322363 0.21060299663617
-0.46488294314381 1.70291635134496 104.57263246153471 290.58189115105841 0.21395202823226
-0.45819397993311 1.70166049081497 106.24438428584163 290.28191922833952 0.21740445085994
-0.45150501672241 1.70034612489573 107.96707156839719 289.96806766954114 0.22096367529390
-0.44481605351171 1.69897019191082 109.74231990742400 289.63961873891446 0.22463323680060
-0.43812709030100 1.69752945738792 111.57180899407899 289.29581505108064 0.22841679890144
-0.43143812709030 1.69602050457144 113.45727370418804 288.93585749288593 0.23231815713879
-0.42474916387960 1.69443972452403 115.40050511704577 288.55890306849886 0.23634124282785
-0.41806020066890 1.69278330581974 117.40335144619188 288.16406267081078 0.24049012677504
-0.41137123745819 1.69104722383606 119.46771886539666 287.75039878346064 0.24476902294087
-0.40468227424749 1.68922722965707 121.59557221127264 287.31692311928595 0.24918229202250
-0.39799331103679 1.68731883860572 123.78893554197720 286.86259420269744 0.25373444492811
-0.39130434782609 1.68531731843046 126.04989252938311 286.38631490543236 0.25843014611182
-0.38461538461539 1.68321767717927 128.38058665986415 285.88692994739023 0.26327421673435
-0.37792642140468 1.68101465080347 130.78322121647599 285.36322337679724 0.26827163761053
-0.37123745819398 1.67870269054433 133.26005901281826 284.81391604684455 0.27342755190081
-0.36454849498328 1.67627595016746 135.81342184623870 284.23766310920161 0.27874726749932
-0.35785953177258 1.67372827312396 138.44568963531182 283.63305154846682 0.28423625906614
-0.35117056856187 1.67105317973242 141.15929920369840 282.99859778569044 0.28990016964666
-0.34448160535117 1.66824385449351 143.95674266959611 282.33274538363736 0.29574481181541
-0.33779264214047 1.66529313366809 146.84056539706322 281.63386289144358 0.30177616827618
-0.33110367892977 1.66219349327131 149.81336346255790 280.90024187179517 0.30800039184461
-0.32441471571906 1.65893703765881 152.87778058715529 280.13009515970538 0.31442380473332
-0.31772575250836 1.65551548890698 156.03650448211911 279.32155540840546 0.32105289705382
-0.31103678929766 1.65192017721748 159.29226255290556 278.47267398474111 0.32789432444308
-0.30434782608696 1.64814203260650 162.64781690432372 277.58142028377904 0.33495490471690
-0.29765886287625 1.64417157817164 166.10595858759100 276.64568153998948 0.34224161344595
-0.29096989966555 1.63999892526372 169.66950102849447 275.66326322030494 0.34976157834507
-0.28428093645485 1.63561377092648 173.34127257494129 274.63189009244422 0.35752207236093
-0.27759197324415 1.63100539800443 177.12410810199071 273.54920806999104 0.36553050533874
-0.27090301003345 1.62616267835631 181.02083961318306 272.41278694360125 0.37379441414468
-0.26421404682274 1.62107407964924 185.03428577876880 271.22012411518716 0.38232145111806
-0.25752508361204 1.61572767624451 189.16724035452606 269.96864945864883 0.39111937072566
-0.25083612040134 1.61011116472007 193.42245942940932 268.65573143637840 0.40019601429058
-0.24414715719064 1.60421188460442 197.80264745655401 267.27868460490362 0.40955929267010
-0.23745819397993 1.59801684492157 202.31044203035086 265.83477864523854 0.41921716676086
-0.23076923076923 1.59151275716380 206.94839738268527 264.32124905317801 0.42917762571652
-0.22408026755853 1.58468607531665 211.71896658418493 262.73530962136829 0.43944866277268
-0.21739130434783 1.57752304355617 216.62448245165550 261.07416683784010 0.45003824858646
-0.21070234113712 1.57000975221968 221.66713718101045 259.33503631413714 0.46095430201525
-0.20401337792642 1.56213220261452 226.84896074600883 257.51516133951225 0.47220465827926
-0.19732441471572 1.55387638117226 232.17179812713388 255.61183363523267 0.48379703447783
-0.19063545150502 1.54522834337551 -237.63728546195091 253.62241635416308 -0.49573899245913
-0.18394648829431 0.56527132696256 -661.04453835871607 62.05226570566073 -1.68622824705183
-0.17725752508361 0.58059221315012 654.76398649712053 64.41953618609197 1.66129811759783
-0.17056856187291 0.59633471913313 648.35148274789924 66.87811707127494 1.63624947230224
-0.16387959866221 0.61249856604468 641.80710827861503 69.42965558354034 1.61109272898121
-0.15719063545151 0.62908200759729 635.13126532947263 72.07556803578930 1.58583890977749
-0.15050167224080 0.64608171015398 628.32470141646411 74.81700683789512 1.56049964530555
-0.14381270903010 0.66349263611401 621.38853314709706 77.65482656246232 1.53508717511282
-0.13712374581940 0.68130793279773 614.32426930962788 80.58954949353462 1.50961434404767
-0.13043478260870 0.69951882922042 607.13383286283636 83.62133115943972 1.48409459413421
-0.12374581939799 0.71811454331918 599.81958142298959 86.74992642737560 1.45854195157311
-0.11705685618729 0.73708220232650 592.38432581928589 89.97465680949875 1.43297100851812
-0.11036789297659 0.75640677905789 584.83134627035474 93.29437969465293 1.40739689931921
-0.10367892976589 0.77607104688582 577.16440572400791 96.70746027258915 1.38183527097775
-0.09698996655518 0.79605555609695 569.38775990198803 100.21174695452321 1.35630224762514
-0.09030100334448 0.81633863416429 561.50616360249489 103.80455111105128 1.33081438891552
-0.08361204013378 0.83689641220332 553.52487283704966 107.48263194196797 1.30538864231369
-0.07692307692308 0.85770287951626 545.44964241576179 111.24218725905563 1.28004228936043
-0.07023411371238 0.87872996766359 537.28671864686942 115.07885089988136 1.25479288610781
-0.06354515050167 0.89994766493883 529.04282688250532 118.98769739661623 1.22965819803346
-0.05685618729097 0.92132416147468 520.72515372248802 122.96325439875872 1.20465612986366
-0.05016722408027 0.94282602448943 512.34132378026095 126.99952319390299 1.17980465085549
-0.04347826086957 0.96441840241474 503.89937101805816 131.09000748951431 1.15512171620681
-0.03678929765886 0.98606525585485 495.40770476931760 135.22775041601500 1.13062518537261
-0.03010033444816 1.00772961254242 486.87507068220759 139.40537949390085 1.10633273816648
-0.02341137123746 1.02937384271118 478.31050693511446 143.61515908313862 1.08226178960953
-0.01672240802676 1.05095995063089 469.72329618914819 147.84904961076393 1.05842940455534
-0.01003344481605 1.07244987748033 461.12291384987174 152.09877266210793 1.03485221316262
-0.00334448160535 1.09380581029500 452.51897330649462 156.35588083206625 1.01154632830688
0.00334448160535 1.09380581029500 452.51897330649462 156.35588083206625 1.01154632830688
0.01003344481605 1.07244987748035 461.12291384986366 152.09877266211191 1.03485221316260
0.01672240802676 1.05095995063089 469.72329618914705 147.84904961076450 1.05842940455534
0.02341137123746 1.02937384271118 478.31050693511378 143.61515908313896 1.08226178960953
0.03010033444816 1.00772961254243 486.87507068220492 139.40537949390216 1.10633273816647
0.03678929765886 0.98606525585485 495.40770476931647 135.22775041601554 1.13062518537261
0.04347826086956 0.96441840241475 503.89937101805657 131.09000748951513 1.15512171620680
0.05016722408027 0.94282602448943 512.34132378025993 126.99952319390351 1.17980465085549
0.05685618729097 0.92132416147469 520.72515372248597 122.96325439875969 1.20465612986365
0.06354515050167 0.89994766493884 529.04282688250328 118.98769739661722 1.22965819803346
0.07023411371237 0.87872996766359 537.28671864686760 115.07885089988220 1.25479288610780
0.07692307692308 0.85770287951626 545.44964241576031 111.24218725905627 1.28004228936043
0.08361204013378 0.83689641220332 553.52487283704863 107.48263194196842 1.30538864231369
0.09030100334448 0.81633863416430 561.50616360249387 103.80455111105169 1.33081438891552
0.09698996655518 0.79605555609695 569.38775990198656 100.21174695452379 1.35630224762513
0.10367892976589 0.77607104688583 577.16440572400631 96.70746027258980 1.38183527097775
0.11036789297659 0.75640677905790 584.83134627035349 93.29437969465350 1.40739689931921
0.11705685618729 0.73708220232651 592.38432581928453 89.97465680949939 1.43297100851811
0.12374581939799 0.71811454331918 599.81958142298834 86.74992642737617 1.45854195157311
0.13043478260870 0.69951882922042 607.13383286283499 83.62133115944035 1.48409459413420
0.13712374581940 0.68130793279773 614.32426930962652 80.58954949353517 1.50961434404767
0.14381270903010 0.66349263611402 621.38853314709604 77.65482656246273 1.53508717511281
0.15050167224080 0.64608171015398 628.32470141646286 74.81700683789560 1.56049964530555
0.15719063545150 0.62908200759730 635.13126532947126 72.07556803578989 1.58583890977748
0.16387959866221 0.61249856604468 641.80710827861344 69.42965558354091 1.61109272898120
0.17056856187291 0.59633471913313 648.35148274789810 66.87811707127535 1.63624947230224
0.17725752508361 0.58059221315013 654.76398649711928 64.41953618609243 1.66129811759782
0.18394648829431 0.56527132696257 661.04453835871493 62.05226570566116 1.68622824705183
0.19063545150502 0.55037099330275 667.19335395030600 59.77445920377839 1.71103003975666
0.19732441471572 0.53588891969125 673.21092156916018 57.58410119322373 1.73569426142638
0.20401337792642 0.52182170751663 679.09797849811559 55.47903549897653 1.76021225163315
0.21070234113712 0.50816496802763 684.85548791683379 53.45699171648315 1.78457590894186
0.21739130434783 0.49491343421868 690.48461657826977 51.51560966453141 1.80877767429675
0.22408026755853 0.48206106780080 695.98671337846849 49.65246179009041 1.83281051299031
0.23076923076923 0.46960116064384 701.36328891858352 47.86507352319848 1.85666789551907
0.23745819397993 0.45752643025059 706.61599613154419 46.15094161385951 1.88034377760450
0.24414715719063 0.44582910897806 711.74661202222740 44.50755051032642 1.90383257963031
0.25083612040134 0.43450102685600 716.75702054927206 42.93238685963316 1.92712916572104
0.25752508361204 0.42353368796741 721.64919665876653 41.42295222737837 1.95022882266062
0.26421404682274 0.41291834045226 726.42519146482562 39.97677414518535 1.97312723882529
0.27090301003344 0.40264604027460 731.08711855933655 38.59141560161309 1.99582048328125
0.27759197324415 0.39270770895599 735.63714142276081 37.26448309617960 2.01830498517582
0.28428093645485 0.38309418552726 740.07746189955901 35.99363337717444 2.04057751353061
0.29096989966555 0.37379627298638 744.41030969536780 34.77657898262115 2.06263515752623
0.29765886287625 0.36480477957563 748.63793284829092 33.61109270058442 2.08447530735168
0.30434782608696 0.35611055520692 752.76258912331014 32.49501106044206 2.10609563567614
0.31103678929766 0.34770452337188 756.78653827674327 31.42623696112414 2.12749407978714
0.31772575250836 0.33957770887463 760.71203513661749 30.40274153598851 2.14866882442772
0.32441471571906 0.33172126172127 764.54132344466291 29.42256534721960 2.16961828535405
0.33110367892977 0.32412647749145 768.27663040618677 28.48381899562873 2.19034109362630
0.33779264214047 0.31678481450633 771.92016189521826 27.58468322467831 2.21083608063760
0.34448160535117 0.30968790809274 775.47409826391163 26.72340859059235 2.23110226387931
0.35117056856187 0.30282758222806 778.94059070713388 25.89831476365937 2.25113883343505
0.35785953177257 0.29619585883315 782.32175813536765 25.10778951936256 2.27094513919144
0.36454849498328 0.28978496496352 785.61968451144003 24.35028747184471 2.29052067874978
0.37123745819398 0.28358733813094 788.83641660907608 23.62432859646665 2.30986508601943
0.37792642140468 0.27759562997030 791.97396215382810 22.92849658287576 2.32897812047176
0.38461538461538 0.27180270844923 795.03428830949315 22.26143705506515 2.34785965703127
0.39130434782609 0.26620165880125 798.01932047565845 21.62185569038412 2.36650967657945
0.39799331103679 0.26078578334742 800.93094136450895 21.00851626533779 2.38492825704591
0.40468227424749 0.25554860035611 803.77099032742001 20.42023865228376 2.40311556506078
0.41137123745819 0.25048384207636 806.54126290418264 19.85589678776429 2.42107184814220
0.41806020066890 0.24558545206676 809.24351056990531 19.31441663019981 2.43879742739277
0.42474916387960 0.24084758192952 811.87944065673366 18.79477412197282 2.45629269067906
0.43143812709030 0.23626458754762 814.45071642949893 18.29599316853909 2.47355808626862
0.43812709030100 0.23183102491258 816.95895729626068 17.81714364508571 2.49059411689980
0.44481605351170 0.22754164562034 819.40573913644141 17.35733943939030 2.50740133425999
0.45150501672241 0.22339139210398 821.79259473085961 16.91573653789976 2.52398033384896
0.45819397993311 0.21937539266396 824.12101427946914 16.49153116061905 2.54033175020467
0.46488294314381 0.21548895634899 826.39244599399262 16.08395794915920 2.55645625246998
0.47157190635451 0.21172756773405 828.60829675391142 15.69228821121900 2.57235454027928
0.47826086956522 0.20808688163617 830.76993281545674 15.31582822385111 2.58802733994542
0.48494983277592 0.20456271780304 832.87868056430898 14.95391759707178 2.60347540092787
0.49163879598662 0.20115105560468 834.93582730371315 14.60592769869915 2.61869949256432
